<?xml version="1.0"?>
<!DOCTYPE RTKGEOMETRY>
<RTKThreeDCircularGeometry version="3">
    <SourceToIsocenterDistance>2700</SourceToIsocenterDistance>
    <SourceToDetectorDistance>3700</SourceToDetectorDistance>
  <Projection>
    <GantryAngle>281.044921875</GantryAngle>
    <ProjectionOffsetX>-0.830242535975756</ProjectionOffsetX>
    <ProjectionOffsetY>0.841565393040572</ProjectionOffsetY>
    <Matrix>
        -709.655559689672                   0   -3631.30688263939   -2241.65484713454
        0.825977313657396               -3700  -0.161225891490302    2272.22656120954
       -0.981477280895718                   0   0.191578566352156               -2700
    </Matrix>
  </Projection>
  <Projection>
    <GantryAngle>281.044921875</GantryAngle>
    <ProjectionOffsetX>-0.830242535975756</ProjectionOffsetX>
    <ProjectionOffsetY>0.841565393040572</ProjectionOffsetY>
    <Matrix>
        -709.655559689672                   0   -3631.30688263939   -2241.65484713454
        0.825977313657396               -3700  -0.161225891490302    2272.22656120954
       -0.981477280895718                   0   0.191578566352156               -2700
    </Matrix>
  </Projection>
  <Projection>
    <GantryAngle>281.044637044271</GantryAngle>
    <ProjectionOffsetX>-0.830242535975756</ProjectionOffsetX>
    <ProjectionOffsetY>0.841565393040572</ProjectionOffsetY>
    <Matrix>
        -709.637507604537                   0   -3631.31041045839   -2241.65484713454
        0.825978115138829               -3700  -0.161221785361776    2272.22656120954
        -0.98147823326548                   0   0.191573687196526               -2700
    </Matrix>
  </Projection>
  <Projection>
    <GantryAngle>281.038859049479</GantryAngle>
    <ProjectionOffsetX>-0.830219044926611</ProjectionOffsetX>
    <ProjectionOffsetY>0.841568502168632</ProjectionOffsetY>
    <Matrix>
        -709.271281321158                   0   -3631.38195990957   -2241.59142130185
        0.825997420956694               -3700  -0.161139084071009    2272.23495585531
       -0.981497547529628                   0   0.191474709017473               -2700
    </Matrix>
  </Projection>
  <Projection>
    <GantryAngle>281.026123046875</GantryAngle>
    <ProjectionOffsetX>-0.830161995235832</ProjectionOffsetX>
    <ProjectionOffsetY>0.841576052908206</ProjectionOffsetY>
    <Matrix>
        -708.464005419529                   0   -3631.53954159856   -2241.43738713675
        0.826040630733553               -3700   -0.16095691723523    2272.25534285216
       -0.981540085271002                   0   0.191256531930794               -2700
    </Matrix>
  </Projection>
  <Projection>
    <GantryAngle>281.006184895833</GantryAngle>
    <ProjectionOffsetX>-0.830078098631745</ProjectionOffsetX>
    <ProjectionOffsetY>0.841587156936991</ProjectionOffsetY>
    <Matrix>
        -707.200153888261                   0   -3631.78587355726   -2241.21086630571
        0.826107491321009               -3700  -0.160671576529882    2272.28532372988
       -0.981606580508759                   0   0.190914957774137               -2700
    </Matrix>
  </Projection>
  <Projection>
    <GantryAngle>280.972086588542</GantryAngle>
    <ProjectionOffsetX>-0.829937152336879</ProjectionOffsetX>
    <ProjectionOffsetY>0.841605811705351</ProjectionOffsetY>
    <Matrix>
        -705.038513920454                   0   -3632.20613163467   -2240.83031130957
        0.826221278891766               -3700  -0.160183459204366    2272.33569160445
        -0.98172002545656                   0   0.190330742702199               -2700
    </Matrix>
  </Projection>
  <Projection>
    <GantryAngle>280.929280598958</GantryAngle>
    <ProjectionOffsetX>-0.829762647400378</ProjectionOffsetX>
    <ProjectionOffsetY>0.841628908085225</ProjectionOffsetY>
    <Matrix>
        -702.324505043881                   0   -3632.73188910507   -2240.35914798102
        0.826363399689267               -3700  -0.159570519140361    2272.39805183011
       -0.981861948598358                   0   0.189597241263252               -2700
    </Matrix>
  </Projection>
  <Projection>
    <GantryAngle>280.873575846354</GantryAngle>
    <ProjectionOffsetX>-0.82953444863726</ProjectionOffsetX>
    <ProjectionOffsetY>0.841659111043521</ProjectionOffsetY>
    <Matrix>
        -698.792093768748                   0   -3633.41303705121    -2239.7430113206
         0.82654780926037               -3700   -0.15877272501741    2272.47959981751
       -0.982045816905117                   0   0.188642554846888               -2700
    </Matrix>
  </Projection>
  <Projection>
    <GantryAngle>280.795125325521</GantryAngle>
    <ProjectionOffsetX>-0.829218997405893</ProjectionOffsetX>
    <ProjectionOffsetY>0.841700862191755</ProjectionOffsetY>
    <Matrix>
        -693.816189026491                   0   -3634.36648997441   -2238.89129299591
        0.826805441460803               -3700  -0.157648670737021    2272.59232791774
       -0.982303189410827                   0    0.18729774177314               -2700
    </Matrix>
  </Projection>
  <Projection>
    <GantryAngle>280.697631835938</GantryAngle>
    <ProjectionOffsetX>-0.828823005434602</ProjectionOffsetX>
    <ProjectionOffsetY>0.841753273207623</ProjectionOffsetY>
    <Matrix>
        -687.630624442309                   0   -3635.54188688243   -2237.82211467342
        0.827123996711939               -3700  -0.156251294455485    2272.73383766058
       -0.982620469725129                   0   0.185626001619295               -2700
    </Matrix>
  </Projection>
  <Projection>
    <GantryAngle>280.580810546875</GantryAngle>
    <ProjectionOffsetX>-0.82834982858755</ProjectionOffsetX>
    <ProjectionOffsetY>0.841815899929973</ProjectionOffsetY>
    <Matrix>
        -680.216170149021                   0   -3636.93643717226   -2236.54453718639
        0.827502422399344               -3700  -0.154576034035451    2272.90292981093
       -0.982996902847974                   0   0.183622136441363               -2700
    </Matrix>
  </Projection>
  <Projection>
    <GantryAngle>280.443522135417</GantryAngle>
    <ProjectionOffsetX>-0.827792755136411</ProjectionOffsetX>
    <ProjectionOffsetY>0.841889630681109</ProjectionOffsetY>
    <Matrix>
        -671.499087946492                   0   -3638.55598557008   -2235.04043886831
        0.827942940856559               -3700   -0.15260614972591    2273.10200283899
       -0.983434063900672                   0   0.181266218473849               -2700
    </Matrix>
  </Projection>
  <Projection>
    <GantryAngle>280.278971354167</GantryAngle>
    <ProjectionOffsetX>-0.827047753292118</ProjectionOffsetX>
    <ProjectionOffsetY>0.841988234456725</ProjectionOffsetY>
    <Matrix>
        -661.045838482474                   0   -3640.46962402284   -2233.02893388872
        0.828474824693689               -3700  -0.150245305458487    2273.36823303316
        -0.98395059549525                   0   0.178441098473816               -2700
    </Matrix>
  </Projection>
  <Projection>
    <GantryAngle>280.086344401042</GantryAngle>
    <ProjectionOffsetX>-0.826259125213699</ProjectionOffsetX>
    <ProjectionOffsetY>0.842092612327309</ProjectionOffsetY>
    <Matrix>
        -648.802182981082                   0   -3642.67160337892   -2230.89963807699
        0.829078027273608               -3700  -0.147477430233689    2273.65005328373
       -0.984544948069629                   0   0.175132079387448               -2700
    </Matrix>
  </Projection>
  <Projection>
    <GantryAngle>279.864705403646</GantryAngle>
    <ProjectionOffsetX>-0.825349686025394</ProjectionOffsetX>
    <ProjectionOffsetY>0.842212979999344</ProjectionOffsetY>
    <Matrix>
        -634.705411032123                   0   -3645.15427964423   -2228.44415226856
        0.829760902152692               -3700  -0.144289808850542    2273.97504599823
       -0.985215048755647                   0   0.171322233540801               -2700
    </Matrix>
  </Projection>
  <Projection>
    <GantryAngle>279.606892903646</GantryAngle>
    <ProjectionOffsetX>-0.82430601227055</ProjectionOffsetX>
    <ProjectionOffsetY>0.842351114117436</ProjectionOffsetY>
    <Matrix>
        -618.295995092182                   0   -3647.97351168198   -2225.62623313049
        0.830537954304579               -3700  -0.140577757538134    2274.34800811708
       -0.985975967010818                   0   0.166887364641789               -2700
    </Matrix>
  </Projection>
  <Projection>
    <GantryAngle>279.319620768229</GantryAngle>
    <ProjectionOffsetX>-0.823134815677494</ProjectionOffsetX>
    <ProjectionOffsetY>0.842506126359282</ProjectionOffsetY>
    <Matrix>
        -599.996772106966                   0    -3651.0278759566   -2222.46400232923
        0.831385313238701               -3700  -0.136436922729552    2274.76654117006
       -0.986800317798711                   0   0.161941757407909               -2700
    </Matrix>
  </Projection>
  <Projection>
    <GantryAngle>279.004109700521</GantryAngle>
    <ProjectionOffsetX>-0.821849519702879</ProjectionOffsetX>
    <ProjectionOffsetY>0.842676240080277</ProjectionOffsetY>
    <Matrix>
        -579.881366577288                   0    -3654.2767103947   -2218.99370319777
         0.83229203966479               -3700  -0.131883305639705    2275.22584821675
       -0.987677117353519                   0   0.156505309354803               -2700
    </Matrix>
  </Projection>
  <Projection>
    <GantryAngle>278.652140299479</GantryAngle>
    <ProjectionOffsetX>-0.820413209840907</ProjectionOffsetX>
    <ProjectionOffsetY>0.842866341053085</ProjectionOffsetY>
    <Matrix>
        -557.420833537866                   0   -3657.77017968814   -2215.11566657045
        0.833274430653724               -3700   -0.12679665649743    2275.73912084333
       -0.988619891515211                   0    0.15043506938361               -2700
    </Matrix>
  </Projection>
  <Projection>
    <GantryAngle>278.272623697917</GantryAngle>
    <ProjectionOffsetX>-0.818876224054031</ProjectionOffsetX>
    <ProjectionOffsetY>0.843069766860436</ProjectionOffsetY>
    <Matrix>
        -533.178871075196                   0   -3661.38238401799   -2210.96580494588
        0.834297331248968               -3700  -0.121303729806466    2276.28837052318
       -0.989594650459194                   0    0.14388338257959               -2700
    </Matrix>
  </Projection>
  <Projection>
    <GantryAngle>277.870198567708</GantryAngle>
    <ProjectionOffsetX>-0.81723856234225</ProjectionOffsetX>
    <ProjectionOffsetY>0.84328651750233</ProjectionOffsetY>
    <Matrix>
        -507.448064417561                   0   -3665.03712529597   -2206.54411832408
        0.835343448914181               -3700  -0.115470658426143    2276.87359725629
       -0.990580818709548                   0   0.136929330695512               -2700
    </Matrix>
  </Projection>
  <Projection>
    <GantryAngle>277.444661458333</GantryAngle>
    <ProjectionOffsetX>-0.815305584584082</ProjectionOffsetX>
    <ProjectionOffsetY>0.843542354325548</ProjectionOffsetY>
    <Matrix>
        -480.212085055449                   0   -3668.70508736937   -2201.32507837702
        0.836431685628207               -3700  -0.109296563615902    2277.56435667898
       -0.991570466306903                   0   0.129568554626151               -2700
    </Matrix>
  </Projection>
  <Projection>
    <GantryAngle>276.991984049479</GantryAngle>
    <ProjectionOffsetX>-0.813476638614983</ProjectionOffsetX>
    <ProjectionOffsetY>0.843784422153073</ProjectionOffsetY>
    <Matrix>
        -451.210204124483                   0   -3672.38478559072   -2196.38692426045
        0.837509359433261               -3700   -0.10271428298871     2278.2179398133
       -0.992563192025043                   0   0.121730480312276               -2700
    </Matrix>
  </Projection>
  <Projection>
    <GantryAngle>276.531453450521</GantryAngle>
    <ProjectionOffsetX>-0.811600710547594</ProjectionOffsetX>
    <ProjectionOffsetY>0.844032708236717</ProjectionOffsetY>
    <Matrix>
        -421.676279313887                   0   -3675.89305804178    -2191.3219184785
        0.838554565615601               -3700 -0.0960075677154584    2278.88831223914
       -0.993509561220014                   0   0.113748634121099               -2700
    </Matrix>
  </Projection>
  <Projection>
    <GantryAngle>276.045288085938</GantryAngle>
    <ProjectionOffsetX>-0.809614038962811</ProjectionOffsetX>
    <ProjectionOffsetY>0.844295651638359</ProjectionOffsetY>
    <Matrix>
        -390.468860559235                   0   -3679.33889773808   -2185.95790519959
        0.839600491997114               -3700 -0.0889165969526774    2279.59825942357
       -0.994438962664164                   0   0.105314526706533               -2700
    </Matrix>
  </Projection>
  <Projection>
    <GantryAngle>275.544189453125</GantryAngle>
    <ProjectionOffsetX>-0.807570317687248</ProjectionOffsetX>
    <ProjectionOffsetY>0.844566145779575</ProjectionOffsetY>
    <Matrix>
        -358.273463882975                   0    -3682.6133081342   -2180.43985775557
        0.840615249432577               -3700 -0.0815964277304609    2280.32859360485
       -0.995321981153589                   0  0.0966134247012038               -2700
    </Matrix>
  </Projection>
  <Projection>
    <GantryAngle>275.023681640625</GantryAngle>
    <ProjectionOffsetX>-0.805446055671762</ProjectionOffsetX>
    <ProjectionOffsetY>0.844847299788424</ProjectionOffsetY>
    <Matrix>
        -324.802046784957                   0   -3685.71625049293   -2174.70435031376
         0.84160189455227               -3700   -0.07398115331503    2281.08770942875
       -0.996158589561726                   0  0.0875674850751812               -2700
    </Matrix>
  </Projection>
  <Projection>
    <GantryAngle>274.49951171875</GantryAngle>
    <ProjectionOffsetX>-0.803305014335458</ProjectionOffsetX>
    <ProjectionOffsetY>0.845130674603031</ProjectionOffsetY>
    <Matrix>
        -291.068048787434                   0   -3688.53358887702   -2168.92353870574
        0.842525983836779               -3700 -0.0663010083998887    2281.85282142818
       -0.996918002334402                   0  0.0784505998803453               -2700
    </Matrix>
  </Projection>
  <Projection>
    <GantryAngle>273.967447916667</GantryAngle>
    <ProjectionOffsetX>-0.801137126085847</ProjectionOffsetX>
    <ProjectionOffsetY>0.845417602706849</ProjectionOffsetY>
    <Matrix>
        -256.801127371216                   0   -3691.07759642107   -2163.07024043179
        0.843391576984451               -3700 -0.0584941949109296    2282.62752730849
       -0.997603520773743                   0  0.0691897054469217               -2700
    </Matrix>
  </Projection>
  <Projection>
    <GantryAngle>273.427490234375</GantryAngle>
    <ProjectionOffsetX>-0.798730971480628</ProjectionOffsetX>
    <ProjectionOffsetY>0.845736066252418</ProjectionOffsetY>
    <Matrix>
        -222.002976300012                   0   -3693.33390265287   -2156.57362299769
        0.844223262729789               -3700 -0.0505625990825715    2283.48737888153
        -0.99821125811823                   0   0.059785317311371               -2700
    </Matrix>
  </Projection>
  <Projection>
    <GantryAngle>272.88671875</GantryAngle>
    <ProjectionOffsetX>-0.796516101132727</ProjectionOffsetX>
    <ProjectionOffsetY>0.846029212612357</ProjectionOffsetY>
    <Matrix>
        -187.132811291344                   0   -3695.26480044071   -2150.59347305836
        0.844955650504644               -3700 -0.0426072443811845    2284.27887405336
       -0.998731057873997                   0  0.0503614340332557               -2700
    </Matrix>
  </Projection>
  <Projection>
    <GantryAngle>272.338053385417</GantryAngle>
    <ProjectionOffsetX>-0.794271028007355</ProjectionOffsetX>
    <ProjectionOffsetY>0.846326356422658</ProjectionOffsetY>
    <Matrix>
        -151.736609985118                   0   -3696.88742485576   -2144.53177561986
        0.845621807449897               -3700 -0.0345262268546816    2285.08116234118
       -0.999167520936322                   0  0.0407954054516519               -2700
    </Matrix>
  </Projection>
  <Projection>
    <GantryAngle>271.786743164063</GantryAngle>
    <ProjectionOffsetX>-0.792025954881984</ProjectionOffsetX>
    <ProjectionOffsetY>0.846623500232959</ProjectionOffsetY>
    <Matrix>
        -116.155779675628                   0    -3698.1763698008   -2138.47007818136
        0.846211872978985               -3700  -0.026397294863389    2285.88345062899
        -0.99951380128964                   0  0.0311794969737144               -2700
    </Matrix>
  </Projection>
  <Projection>
    <GantryAngle>271.241495768229</GantryAngle>
    <ProjectionOffsetX>-0.789804372805756</ProjectionOffsetX>
    <ProjectionOffsetY>0.846917534915199</ProjectionOffsetY>
    <Matrix>
        -80.9556440743887                   0   -3699.11432744156   -2132.47180657554
        0.846718724396142               -3700 -0.0183497330718619    2286.67734427104
       -0.999765253981809                   0  0.0216664932716256               -2700
    </Matrix>
  </Projection>
  <Projection>
    <GantryAngle>270.697550455729</GantryAngle>
    <ProjectionOffsetX>-0.787586146593692</ProjectionOffsetX>
    <ProjectionOffsetY>0.847211125436289</ProjectionOffsetY>
    <Matrix>
        -45.8322579669568                   0   -3699.71620863298   -2126.48259580297
        0.847148339513872               -3700 -0.0103141612316651    2287.47003867798
       -0.999925891055332                   0  0.0121742514020382               -2700
    </Matrix>
  </Projection>
  <Projection>
    <GantryAngle>270.153605143229</GantryAngle>
    <ProjectionOffsetX>-0.785367920381628</ProjectionOffsetX>
    <ProjectionOffsetY>0.847504715957379</ProjectionOffsetY>
    <Matrix>
        -10.7047405559454                   0   -3699.98459798583    -2120.4933850304
        0.847501670320531               -3700 -0.00227208580538495    2288.26273308492
         -0.9999964063482                   0 0.00268091228591962               -2700
    </Matrix>
  </Projection>
  <Projection>
    <GantryAngle>269.604044596354</GantryAngle>
    <ProjectionOffsetX>-0.784452335223462</ProjectionOffsetX>
    <ProjectionOffsetY>0.843058750106282</ProjectionOffsetY>
    <Matrix>
         24.7850471637972                   0   -3699.91706890878   -2118.02130510335
         0.84303861873309               -3700 0.00582610121523916    2276.25862528696
       -0.999976121031672                   0 -0.00691067047759682               -2700
    </Matrix>
  </Projection>
  <Projection>
    <GantryAngle>269.057006835938</GantryAngle>
    <ProjectionOffsetX>-0.784000126981292</ProjectionOffsetX>
    <ProjectionOffsetY>0.836891526367052</ProjectionOffsetY>
    <Matrix>
         60.1091983654665                   0    -3699.5117919704   -2116.80034284949
        0.836778181672705               -3700  0.0137732197214761    2259.60712119104
       -0.999864564652914                   0 -0.0164575925165185               -2700
    </Matrix>
  </Projection>
  <Projection>
    <GantryAngle>268.506998697917</GantryAngle>
    <ProjectionOffsetX>-0.783494797891397</ProjectionOffsetX>
    <ProjectionOffsetY>0.829999839598213</ProjectionOffsetY>
    <Matrix>
         95.6196778872012                   0   -3698.76431948088   -2115.43595430677
        0.829718067136216               -3700  0.0216255127292237    2240.99956691518
        -0.99966051504042                   0 -0.0260548396487548               -2700
    </Matrix>
  </Projection>
  <Projection>
    <GantryAngle>267.960205078125</GantryAngle>
    <ProjectionOffsetX>-0.783042589649228</ProjectionOffsetX>
    <ProjectionOffsetY>0.823832615858984</ProjectionOffsetY>
    <Matrix>
         130.913838480937                   0   -3697.68335313476   -2114.21499205291
        0.823310591386496               -3700  0.0293231830447177    2224.34806281926
       -0.999366346436839                   0 -0.0355936175386105               -2700
    </Matrix>
  </Projection>
  <Projection>
    <GantryAngle>267.416585286458</GantryAngle>
    <ProjectionOffsetX>-0.782591743480076</ProjectionOffsetX>
    <ProjectionOffsetY>0.817683968094871</ProjectionOffsetY>
    <Matrix>
         165.991324182028                   0   -3696.27481293614   -2112.99770739621
        0.816852922406007               -3700  0.0368561370214041    2207.74671385615
        -0.99898365906476                   0 -0.0450738163636442               -2700
    </Matrix>
  </Projection>
  <Projection>
    <GantryAngle>266.870890299479</GantryAngle>
    <ProjectionOffsetX>-0.782140216274416</ProjectionOffsetX>
    <ProjectionOffsetY>0.8115260323432</ProjectionOffsetY>
    <Matrix>
         201.187679679594                   0   -3694.52623881445   -2111.77858394092
        0.810316100724075               -3700  0.0442980595289152    2191.12028732664
        -0.99850906616559                   0 -0.0545861226423125               -2700
    </Matrix>
  </Projection>
  <Projection>
    <GantryAngle>266.326985677083</GantryAngle>
    <ProjectionOffsetX>-0.781690051141774</ProjectionOffsetX>
    <ProjectionOffsetY>0.805386672566649</ProjectionOffsetY>
    <Matrix>
          236.25040311161                   0   -3692.44991273666   -2110.56313808279
         0.80373232908219               -3700  0.0515949177351389    2174.54401592995
       -0.997945901588878                   0 -0.0640622939174217               -2700
    </Matrix>
  </Projection>
  <Projection>
    <GantryAngle>265.775594075521</GantryAngle>
    <ProjectionOffsetX>-0.781238523936114</ProjectionOffsetX>
    <ProjectionOffsetY>0.799228736814978</ProjectionOffsetY>
    <Matrix>
         271.774021967514                   0   -3690.00535112312   -2109.34401462751
        0.797057384134717               -3700  0.0588735946514854    2157.91758940044
       -0.997283189930189                   0 -0.0736630102742598               -2700
    </Matrix>
  </Projection>
  <Projection>
    <GantryAngle>265.229288736979</GantryAngle>
    <ProjectionOffsetX>-0.780786315693944</ProjectionOffsetX>
    <ProjectionOffsetY>0.793061513075747</ProjectionOffsetY>
    <Matrix>
         306.945147917614                   0   -3687.24630121139   -2108.12305237365
        0.790313954556913               -3700  0.0659576891242223    2141.26608530452
       -0.996535503900349                   0 -0.0831684403249089               -2700
    </Matrix>
  </Projection>
  <Projection>
    <GantryAngle>264.681884765625</GantryAngle>
    <ProjectionOffsetX>-0.780333426415265</ProjectionOffsetX>
    <ProjectionOffsetY>0.786885001348959</ProjectionOffsetY>
    <Matrix>
         342.159011426721                   0   -3684.14546670184   -2106.90025132121
        0.783497810451595               -3700   0.072932752351106    2124.58950364219
       -0.995695443563472                   0 -0.0926854015848278               -2700
    </Matrix>
  </Projection>
  <Projection>
    <GantryAngle>264.135416666667</GantryAngle>
    <ProjectionOffsetX>-0.779880537136586</ProjectionOffsetX>
    <ProjectionOffsetY>0.780708489622169</ProjectionOffsetY>
    <Matrix>
          377.28152151529                   0   -3680.71450424191   -2105.67745026878
        0.776622391761187               -3700  0.0797709620304309    2107.91292197986
       -0.994766166994087                   0  -0.102177654131873               -2700
    </Matrix>
  </Projection>
  <Projection>
    <GantryAngle>263.588745117188</GantryAngle>
    <ProjectionOffsetX>-0.779378613229238</ProjectionOffsetX>
    <ProjectionOffsetY>0.773863242791126</ProjectionOffsetY>
    <Matrix>
         412.382815908669                   0   -3676.94724201671   -2104.32225571894
        0.769023504867838               -3700  0.0864127739630225    2089.43075553604
       -0.993746003614498                   0  -0.111664140619154               -2700
    </Matrix>
  </Projection>
  <Projection>
    <GantryAngle>263.046834309896</GantryAngle>
    <ProjectionOffsetX>-0.778929129133105</ProjectionOffsetX>
    <ProjectionOffsetY>0.767733171002132</ProjectionOffsetY>
    <Matrix>
         447.141335700821                   0   -3672.88241475796   -2103.10864865938
        0.762086829499592               -3700  0.0929402289659854    2072.87956170576
       -0.992645437613213                   0  -0.121057982742454               -2700
    </Matrix>
  </Projection>
  <Projection>
    <GantryAngle>262.506306966146</GantryAngle>
    <ProjectionOffsetX>-0.778482369183009</ProjectionOffsetX>
    <ProjectionOffsetY>0.761640251163375</ProjectionOffsetY>
    <Matrix>
         481.771273050295                   0   -3668.50065374102   -2101.90239679413
        0.755135251883831               -3700  0.0993308791592611    2056.42867814111
       -0.991459223341193                   0  -0.130417055831197               -2700
    </Matrix>
  </Projection>
  <Projection>
    <GantryAngle>261.953531901042</GantryAngle>
    <ProjectionOffsetX>-0.77803016094084</ProjectionOffsetX>
    <ProjectionOffsetY>0.755473027424145</ProjectionOffsetY>
    <Matrix>
         517.141509045283                   0   -3663.68192737215   -2100.68143454027
        0.748035297804762               -3700   0.105748231207641    2039.77717404519
       -0.990154870724183                   0  -0.139976183621273               -2700
    </Matrix>
  </Projection>
  <Projection>
    <GantryAngle>261.402221679688</GantryAngle>
    <ProjectionOffsetX>-0.777573866479614</ProjectionOffsetX>
    <ProjectionOffsetY>0.749250075759561</ProjectionOffsetY>
    <Matrix>
          552.37007800123                   0   -3658.53630589475   -2099.44943949496
        0.740830137246832               -3700   0.112010641336205    2022.97520455081
       -0.988762178630155                   0  -0.149497003684188               -2700
    </Matrix>
  </Projection>
  <Projection>
    <GantryAngle>260.852213541667</GantryAngle>
    <ProjectionOffsetX>-0.777118253054898</ProjectionOffsetX>
    <ProjectionOffsetY>0.743036412082535</ProjectionOffsetY>
    <Matrix>
         587.464485353756                   0   -3653.06529949313   -2098.21928324822
        0.733586144047642               -3700   0.118129077461053    2006.19831262285
       -0.987281554603217                   0  -0.158981545911012               -2700
    </Matrix>
  </Projection>
  <Projection>
    <GantryAngle>260.308634440104</GantryAngle>
    <ProjectionOffsetX>-0.776668087922256</ProjectionOffsetX>
    <ProjectionOffsetY>0.736897052305982</ProjectionOffsetY>
    <Matrix>
         622.095496931723                   0   -3647.32748679229   -2097.00383739009
        0.726380683308541               -3700   0.124049863415735    1989.62204122615
       -0.985728849145844                   0  -0.168340832722216               -2700
    </Matrix>
  </Projection>
  <Projection>
    <GantryAngle>259.769856770833</GantryAngle>
    <ProjectionOffsetX>-0.776221327972161</ProjectionOffsetX>
    <ProjectionOffsetY>0.730804132467225</ProjectionOffsetY>
    <Matrix>
         656.365367751415                   0   -3641.31639747717   -2095.79758552483
        0.719186033265145               -3700   0.129792640729434    1973.17115766151
       -0.984102307737564                   0  -0.177602499716645               -2700
    </Matrix>
  </Projection>
  <Projection>
    <GantryAngle>259.224568684896</GantryAngle>
    <ProjectionOffsetX>-0.775771162839519</ProjectionOffsetX>
    <ProjectionOffsetY>0.724664772690672</ProjectionOffsetY>
    <Matrix>
         690.990234075214                   0   -3634.90482657161    -2094.5821396667
        0.711887128592665               -3700   0.135483389841391    1956.59488626482
       -0.982367510358529                   0  -0.186960088232719               -2700
    </Matrix>
  </Projection>
  <Projection>
    <GantryAngle>258.673299153646</GantryAngle>
    <ProjectionOffsetX>-0.775264471676605</ProjectionOffsetX>
    <ProjectionOffsetY>0.717754509946716</ProjectionOffsetY>
    <Matrix>
         725.931330030399                   0   -3628.08824384348   -2093.21407352683
        0.703774975967258               -3700   0.140969215615097    1937.93717685613
       -0.980523237700735                   0  -0.196403106718984               -2700
    </Matrix>
  </Projection>
  <Projection>
    <GantryAngle>258.116658528646</GantryAngle>
    <ProjectionOffsetX>-0.774809539288398</ProjectionOffsetX>
    <ProjectionOffsetY>0.71155013425725</ProjectionOffsetY>
    <Matrix>
         761.144607569329                   0   -3620.86446676729   -2091.98575607868
         0.69630082991257               -3700   0.146522175197397    1921.18536249457
       -0.978568896820464                   0   -0.20591967894201               -2700
    </Matrix>
  </Projection>
  <Projection>
    <GantryAngle>257.573893229167</GantryAngle>
    <ProjectionOffsetX>-0.774360055192266</ProjectionOffsetX>
    <ProjectionOffsetY>0.705420062468256</ProjectionOffsetY>
    <Matrix>
          795.41098128349                   0   -3613.49165911409   -2090.77214901912
        0.688895126983268               -3700   0.151792518100943    1904.63416866429
       -0.976574332990804                   0  -0.215180324712942               -2700
    </Matrix>
  </Projection>
  <Projection>
    <GantryAngle>257.030965169271</GantryAngle>
    <ProjectionOffsetX>-0.773910571096133</ProjectionOffsetX>
    <ProjectionOffsetY>0.699289990679263</ProjectionOffsetY>
    <Matrix>
         829.616217693809                   0   -3605.79221950974   -2089.55854195956
        0.681452149130631               -3700   0.156937756800102    1888.08297483401
        -0.97449149596535                   0  -0.224424428909184               -2700
    </Matrix>
  </Projection>
  <Projection>
    <GantryAngle>256.486450195313</GantryAngle>
