<?xml version="1.0"?>
<!DOCTYPE RTKGEOMETRY>
<RTKThreeDCircularGeometry version="3">
    <SourceToIsocenterDistance>1000</SourceToIsocenterDistance>
    <SourceToDetectorDistance>1500</SourceToDetectorDistance>
  <Projection>
    <GantryAngle>289.975306375123</GantryAngle>
    <ProjectionOffsetX>0.00143468509713807</ProjectionOffsetX>
    <ProjectionOffsetY>-0.013491314829954</ProjectionOffsetY>
    <Matrix>
        -512.421328767254                   0   -1409.76039872968    1.43468509713807
      -0.0126796765078891               -1500 0.00460883710888353    -13.491314829954
       -0.939839939079706                   0   0.341615118094405               -1000
    </Matrix>
  </Projection>
  <Projection>
    <GantryAngle>289.975306375123</GantryAngle>
    <ProjectionOffsetX>0.00143468509713807</ProjectionOffsetX>
    <ProjectionOffsetY>-0.013491314829954</ProjectionOffsetY>
    <Matrix>
        -512.421328767254                   0   -1409.76039872968    1.43468509713807
      -0.0126796765078891               -1500 0.00460883710888353    -13.491314829954
       -0.939839939079706                   0   0.341615118094405               -1000
    </Matrix>
  </Projection>
  <Projection>
    <GantryAngle>289.975306375123</GantryAngle>
    <ProjectionOffsetX>0.00143468509713807</ProjectionOffsetX>
    <ProjectionOffsetY>-0.013491314829954</ProjectionOffsetY>
    <Matrix>
        -512.421328767254                   0   -1409.76039872968    1.43468509713807
      -0.0126796765078891               -1500 0.00460883710888353    -13.491314829954
       -0.939839939079706                   0   0.341615118094405               -1000
    </Matrix>
  </Projection>
  <Projection>
    <GantryAngle>289.941804018141</GantryAngle>
    <ProjectionOffsetX>0.00126617869337875</ProjectionOffsetX>
    <ProjectionOffsetY>-0.0134256371369454</ProjectionOffsetY>
    <Matrix>
        -511.597075442917                   0   -1410.05972653638    1.26617869337875
      -0.0126206296213587               -1500 0.00457902178346094   -13.4256371369454
          -0.940039529791                   0   0.341065510467294               -1000
    </Matrix>
  </Projection>
  <Projection>
    <GantryAngle>289.821054847661</GantryAngle>
    <ProjectionOffsetX>0.000367477873327582</ProjectionOffsetX>
    <ProjectionOffsetY>-0.0491120001176079</ProjectionOffsetY>
    <Matrix>
         -508.62512758021                   0   -1411.13446545471   0.367477873327582
      -0.0462024199424902               -1500  0.0166530762026031   -49.1120001176079
       -0.940756227232648                   0   0.339083648858205               -1000
    </Matrix>
  </Projection>
  <Projection>
    <GantryAngle>289.588531169983</GantryAngle>
    <ProjectionOffsetX>0.00102986749721645</ProjectionOffsetX>
    <ProjectionOffsetY>-0.012287223795395</ProjectionOffsetY>
    <Matrix>
        -502.893518454651                   0   -1413.18721657725    1.02986749721645
      -0.0115760955682579               -1500 0.00411945141890031    -12.287223795395
       -0.942124580867196                   0   0.335262992478757               -1000
    </Matrix>
  </Projection>
  <Projection>
    <GantryAngle>289.273411922147</GantryAngle>
    <ProjectionOffsetX>0.00146758191609364</ProjectionOffsetX>
    <ProjectionOffsetY>-0.0114115212245644</ProjectionOffsetY>
    <Matrix>
        -495.113194843095                   0   -1415.93182190896    1.46758191609364
      -0.0107719536735653               -1500 0.00376667369349219   -11.4115212245644
       -0.943954224996547                   0   0.330076386782163               -1000
    </Matrix>
  </Projection>
  <Projection>
    <GantryAngle>288.911524087392</GantryAngle>
    <ProjectionOffsetX>0.00100659551491966</ProjectionOffsetX>
    <ProjectionOffsetY>-0.0101855376254442</ProjectionOffsetY>
    <Matrix>
        -486.160599068087                   0   -1419.03060992875    1.00659551491966
      -0.00963572423073468               -1500 0.00330121118206219   -10.1855376254442
       -0.946020189122264                   0   0.324107700885177               -1000
    </Matrix>
  </Projection>
  <Projection>
    <GantryAngle>288.52474290976</GantryAngle>
    <ProjectionOffsetX>0.00300540037773467</ProjectionOffsetX>
    <ProjectionOffsetY>-0.0088719837694648</ProjectionOffsetY>
    <Matrix>
        -476.568384115006                   0   -1422.28076527493    3.00540037773467
      -0.00841229559576955               -1500 0.00281875483414984    -8.8719837694648
       -0.948186540277792                   0   0.317714155863462               -1000
    </Matrix>
  </Projection>
  <Projection>
    <GantryAngle>288.107791361566</GantryAngle>
    <ProjectionOffsetX>-0.000589402902465563</ProjectionOffsetX>
    <ProjectionOffsetY>-0.0040101795974487</ProjectionOffsetY>
    <Matrix>
        -466.209084046534                   0    -1425.7100301088  -0.589402902465563
      -0.00381156933949612               -1500 0.00124638660695908    -4.0101795974487
       -0.950473475532382                   0   0.310805682556472               -1000
    </Matrix>
  </Projection>
  <Projection>
    <GantryAngle>287.669946048698</GantryAngle>
    <ProjectionOffsetX>0.00165795995616613</ProjectionOffsetX>
    <ProjectionOffsetY>-0.00272653452213029</ProjectionOffsetY>
    <Matrix>
        -455.298384787901                   0    -1429.2317449638    1.65795995616613
      -0.00259789888043368               -1500 0.000827594047471123   -2.72653452213029
        -0.95282082781182                   0   0.303533309684452               -1000
    </Matrix>
  </Projection>
  <Projection>
    <GantryAngle>287.233094160182</GantryAngle>
    <ProjectionOffsetX>0.00088384354485771</ProjectionOffsetX>
    <ProjectionOffsetY>0.0347951147620143</ProjectionOffsetY>
    <Matrix>
        -444.388812985443                   0   -1432.66136364954    0.88384354485771
       0.0332330716348556               -1500 -0.0103083927464131    34.7951147620143
       -0.955107401201505                   0   0.296259771433969               -1000
    </Matrix>
  </Projection>
  <Projection>
    <GantryAngle>286.826410651398</GantryAngle>
    <ProjectionOffsetX>0.00026231167238655</ProjectionOffsetX>
    <ProjectionOffsetY>0.0362037575336507</ProjectionOffsetY>
    <Matrix>
        -434.209316942092                   0   -1435.77932464594    0.26231167238655
       0.0346537358615206               -1500 -0.0104800119463353    36.2037575336507
       -0.957186165809187                   0   0.289473045348797               -1000
    </Matrix>
  </Projection>
  <Projection>
    <GantryAngle>286.431354255552</GantryAngle>
    <ProjectionOffsetX>-0.000206635661249566</ProjectionOffsetX>
    <ProjectionOffsetY>0.0375473860235778</ProjectionOffsetY>
    <Matrix>
         -424.29977527325                   0   -1438.73892722172  -0.206635661249566
       0.0360139253881317               -1500 -0.0106208933400938    37.5473860235778
       -0.959159323781337                   0   0.282866384717819               -1000
    </Matrix>
  </Projection>
  <Projection>
    <GantryAngle>286.040939148895</GantryAngle>
    <ProjectionOffsetX>-0.000116106352480161</ProjectionOffsetX>
    <ProjectionOffsetY>0.0386526288134539</ProjectionOffsetY>
    <Matrix>
        -414.486304981324                   0   -1441.59671995428  -0.116106352480161
       0.0371476694367849               -1500 -0.0106806539877485    38.6526288134539
       -0.961064501358179                   0    0.27632412893042               -1000
    </Matrix>
  </Projection>
  <Projection>
    <GantryAngle>285.647541778352</GantryAngle>
    <ProjectionOffsetX>0.00209941278288439</ProjectionOffsetX>
    <ProjectionOffsetY>0.0554171709555099</ProjectionOffsetY>
    <Matrix>
        -404.576361787402                   0   -1444.40921053809    2.09941278288439
       0.0533633605133697               -1500 -0.0149470596249679    55.4171709555099
        -0.96293909619116                   0     0.2697189222627               -1000
    </Matrix>
  </Projection>
  <Projection>
    <GantryAngle>285.234885778475</GantryAngle>
    <ProjectionOffsetX>0.00152874242335899</ProjectionOffsetX>
    <ProjectionOffsetY>0.0602676437134966</ProjectionOffsetY>
    <Matrix>
        -394.163576834719                   0   -1447.28541576954    1.52874242335899
       0.0581496383858317               -1500 -0.0158369326062209    60.2676437134966
        -0.96485667603443                   0   0.262776701234701               -1000
    </Matrix>
  </Projection>
  <Projection>
    <GantryAngle>284.81727261099</GantryAngle>
    <ProjectionOffsetX>0.00101423164474146</ProjectionOffsetX>
    <ProjectionOffsetY>0.0616623272120001</ProjectionOffsetY>
    <Matrix>
        -383.604832551756                   0   -1450.11976486219    1.01423164474146
       0.0596118289624971               -1500 -0.0157693514434095    61.6623272120001
       -0.966746336990279                   0   0.255737208704322               -1000
    </Matrix>
  </Projection>
  <Projection>
    <GantryAngle>284.402313883991</GantryAngle>
    <ProjectionOffsetX>0.0011352778612761</ProjectionOffsetX>
    <ProjectionOffsetY>0.0782608989918379</ProjectionOffsetY>
    <Matrix>
        -373.092405036115                   0   -1452.85995791255     1.1352778612761
       0.0758014028776259               -1500 -0.0194657553872052    78.2608989918379
       -0.968573117024013                   0   0.248729003090488               -1000
    </Matrix>
  </Projection>
  <Projection>
    <GantryAngle>283.996309911971</GantryAngle>
    <ProjectionOffsetX>0.00093589654625359</ProjectionOffsetX>
    <ProjectionOffsetY>0.100223590171149</ProjectionOffsetY>
    <Matrix>
        -362.788197876626                   0   -1455.46718392491    0.93589654625359
       0.0972480825753986               -1500 -0.0242400177847076    100.223590171149
       -0.970311305046352                   0    0.24185940399175               -1000
    </Matrix>
  </Projection>
  <Projection>
    <GantryAngle>283.602894623955</GantryAngle>
    <ProjectionOffsetX>0.000782290592881152</ProjectionOffsetX>
    <ProjectionOffsetY>0.101526087176796</ProjectionOffsetY>
    <Matrix>
        -352.786065109418                   0   -1457.92386367232   0.782290592881152
       0.0986781910671716               -1500 -0.0238780439973854    101.526087176796
       -0.971949119789629                   0   0.235191216970714               -1000
    </Matrix>
  </Projection>
  <Projection>
    <GantryAngle>283.203524762319</GantryAngle>
    <ProjectionOffsetX>0.000628684639510935</ProjectionOffsetX>
    <ProjectionOffsetY>0.102828584182229</ProjectionOffsetY>
    <Matrix>
         -342.61553242661                   0   -1460.34742336898   0.628684639510935
        0.100110295462123               -1500 -0.0234871553707159    102.828584182229
       -0.973564853180429                   0   0.228410762994586               -1000
    </Matrix>
  </Projection>
  <Projection>
    <GantryAngle>282.800507035846</GantryAngle>
    <ProjectionOffsetX>0.00084128157934793</ProjectionOffsetX>
    <ProjectionOffsetY>0.107428801023746</ProjectionOffsetY>
    <Matrix>
        -332.334870338428                   0   -1462.72127692115    0.84128157934793
        0.104758915325134               -1500 -0.0238016165270568    107.428801023746
       -0.975147393686149                   0   0.221557127141312               -1000
    </Matrix>
  </Projection>
  <Projection>
    <GantryAngle>282.390855198989</GantryAngle>
    <ProjectionOffsetX>0.000596124902675355</ProjectionOffsetX>
    <ProjectionOffsetY>0.108773314061717</ProjectionOffsetY>
    <Matrix>
        -321.868578976735                   0   -1465.05993661278   0.596124902675355
        0.106239607127038               -1500 -0.0233405169064736    108.773314061717
        -0.97670653913109                   0    0.21457944081055               -1000
    </Matrix>
  </Projection>
  <Projection>
    <GantryAngle>281.978205171602</GantryAngle>
    <ProjectionOffsetX>0.000350968226000559</ProjectionOffsetX>
    <ProjectionOffsetY>0.0946938665627875</ProjectionOffsetY>
    <Matrix>
        -311.309051778112                   0   -1467.33999955059   0.350968226000559
       0.0926320608148012               -1500 -0.0196527268798497    94.6938665627875
       -0.978226617807193                   0   0.207539596736382               -1000
    </Matrix>
  </Projection>
  <Projection>
    <GantryAngle>281.5715336078</GantryAngle>
    <ProjectionOffsetX>0.000399960626228379</ProjectionOffsetX>
    <ProjectionOffsetY>0.0959872232394779</ProjectionOffsetY>
    <Matrix>
        -300.886425799216                   0   -1469.51262627101   0.399960626228379
       0.0940362858734587               -1500 -0.0192541934224865    95.9872232394779
       -0.979675030694952                   0    0.20059121175377               -1000
    </Matrix>
  </Projection>
  <Projection>
    <GantryAngle>281.16552963578</GantryAngle>
    <ProjectionOffsetX>0.000521006842765237</ProjectionOffsetX>
    <ProjectionOffsetY>0.0972550017339649</ProjectionOffsetY>
    <Matrix>
        -290.465717663857                   0    -1471.6078509108   0.521006842765237
       0.0954141428533304               -1500 -0.0188328623909847    97.2550017339649
       -0.981071833347245                   0    0.19364415253933               -1000
    </Matrix>
  </Projection>
  <Projection>
    <GantryAngle>280.765498154853</GantryAngle>
    <ProjectionOffsetX>0.00100825595250931</ProjectionOffsetX>
    <ProjectionOffsetY>0.0983416690149233</ProjectionOffsetY>
    <Matrix>
        -280.183673418695                   0   -1473.60005060757    1.00825595250931
       0.0966108466108999               -1500 -0.0183692183221252    98.3416690149233
       -0.982399908183775                   0   0.186789775952834               -1000
    </Matrix>
  </Projection>
  <Projection>
    <GantryAngle>280.359494182833</GantryAngle>
    <ProjectionOffsetX>0.00112930216904616</ProjectionOffsetX>
    <ProjectionOffsetY>0.0996094475093393</ProjectionOffsetY>
    <Matrix>
        -269.734521055702                   0    -1475.5484702822    1.12930216904616
       0.0979856984465574               -1500  -0.017912144848011    99.6094475093393
       -0.983698844804559                   0   0.179823754632627               -1000
    </Matrix>
  </Projection>
  <Projection>
    <GantryAngle>279.95347229334</GantryAngle>
    <ProjectionOffsetX>0.00125034838557858</ProjectionOffsetX>
    <ProjectionOffsetY>0.0854539360635179</ProjectionOffsetY>
    <Matrix>
        -259.271362270455                   0   -1477.42287809144    1.25034838557858
       0.0841677211298924               -1500 -0.0147705757690233    85.4539360635179
       -0.984948441313816                   0   0.172848395866099               -1000
    </Matrix>
  </Projection>
  <Projection>
    <GantryAngle>279.546806702029</GantryAngle>
    <ProjectionOffsetX>0.00133070539175884</ProjectionOffsetX>
    <ProjectionOffsetY>0.0867418380260168</ProjectionOffsetY>
    <Matrix>
        -248.778604785674                   0   -1479.22588058845    1.33070539175884
       0.0855405017292072               -1500 -0.0143864181799095    86.7418380260168
       -0.986150439924397                   0   0.165853278040921               -1000
    </Matrix>
  </Projection>
  <Projection>
    <GantryAngle>279.140802730009</GantryAngle>
    <ProjectionOffsetX>0.00181795450150291</ProjectionOffsetX>
    <ProjectionOffsetY>0.0878285053071529</ProjectionOffsetY>
    <Matrix>
         -238.29001400623                   0    -1480.9516768714    1.81795450150291
       0.0867131645644332               -1500 -0.0139525422669171    87.8285053071529
       -0.987300925379305                   0   0.158861205916261               -1000
    </Matrix>
  </Projection>
  <Projection>
    <GantryAngle>278.734137138698</GantryAngle>
    <ProjectionOffsetX>0.00206084720551947</ProjectionOffsetX>
    <ProjectionOffsetY>0.0890690010244291</ProjectionOffsetY>
    <Matrix>
        -227.772578191897                   0   -1482.60569694982    2.06084720551947
       0.0880361203115155               -1500  -0.013525104952869    89.0690010244291
       -0.988403589340467                   0   0.151849743427115               -1000
    </Matrix>
  </Projection>
  <Projection>
    <GantryAngle>278.328115249204</GantryAngle>
    <ProjectionOffsetX>-0.000168213883579016</ProjectionOffsetX>
    <ProjectionOffsetY>0.0902392580961922</ProjectionOffsetY>
    <Matrix>
        -217.262787744974                   0   -1484.18222636619  -0.168213883579016
       0.0892876701236432               -1500 -0.0130704118390608    90.2392580961922
       -0.989454833820391                   0   0.144841747536623               -1000
    </Matrix>
  </Projection>
  <Projection>
    <GantryAngle>277.928083768278</GantryAngle>
    <ProjectionOffsetX>0.000287191496320949</ProjectionOffsetX>
    <ProjectionOffsetY>0.0914095151681329</ProjectionOffsetY>
    <Matrix>
         -206.89476340835                   0   -1485.66300245859   0.287191496320949
       0.0905358207580192               -1500 -0.0126081173434005     91.409515168133
       -0.990441975230841                   0   0.137930031903242               -1000
    </Matrix>
  </Projection>
  <Projection>
    <GantryAngle>277.522079796258</GantryAngle>
    <ProjectionOffsetX>0.00106103417466419</ProjectionOffsetX>
    <ProjectionOffsetY>0.076989973330486</ProjectionOffsetY>
    <Matrix>
        -196.361324310461                   0   -1487.09187016679    1.06103417466419
       0.0763274351535738               -1500 -0.0100786227385456     76.989973330486
       -0.991394487512443                   0   0.130908250809262               -1000
    </Matrix>
  </Projection>
  <Projection>
    <GantryAngle>277.109441713853</GantryAngle>
    <ProjectionOffsetX>0.00148105763251638</ProjectionOffsetX>
    <ProjectionOffsetY>0.0781788059112734</ProjectionOffsetY>
    <Matrix>
        -185.646030993988                   0   -1488.46751767661    1.48105763251638
       0.0775777325595049               -1500 -0.00967579994824675    78.1788059112734
       -0.992311556249008                   0   0.123765000443061               -1000
    </Matrix>
  </Projection>
  <Projection>
    <GantryAngle>276.702758205069</GantryAngle>
    <ProjectionOffsetX>0.00190108109036857</ProjectionOffsetX>
    <ProjectionOffsetY>0.079367638492274</ProjectionOffsetY>
    <Matrix>
        -175.075933853841                   0   -1489.74776972104    1.90108109036857
       0.0788251632139285               -1500 -0.00926367551989077     79.367638492274
       -0.993165031886412                   0   0.116718547960735               -1000
    </Matrix>
  </Projection>
  <Projection>
    <GantryAngle>276.296754233049</GantryAngle>
    <ProjectionOffsetX>0.00235648647026854</ProjectionOffsetX>
    <ProjectionOffsetY>0.0805378955639305</ProjectionOffsetY>
    <Matrix>
        -164.514663283894                   0   -1490.95101380634    2.35648647026854
       0.0800520241503138               -1500 -0.00883323560787017    80.5378955639305
       -0.993967170234403                   0   0.109678003702722               -1000
    </Matrix>
  </Projection>
  <Projection>
    <GantryAngle>275.896722752122</GantryAngle>
    <ProjectionOffsetX>0.000462484805713315</ProjectionOffsetX>
    <ProjectionOffsetY>0.0815349286445957</ProjectionOffsetY>
    <Matrix>
         -154.10300123071                   0   -1492.06309015802   0.462484805713315
       0.0811035024768302               -1500 -0.00837654314560103    81.5349286445957
       -0.994708695096232                   0   0.102735640845578               -1000
    </Matrix>
  </Projection>
  <Projection>
    <GantryAngle>275.490718780102</GantryAngle>
    <ProjectionOffsetX>0.00122438608536446</ProjectionOffsetX>
    <ProjectionOffsetY>0.0619574005621806</ProjectionOffsetY>
    <Matrix>
        -143.525544998035                   0   -1493.11768388648    1.22438608536446
       0.0616731221122827               -1500 -0.00592836346270738    61.9574005621806
       -0.995411711154463                   0  0.0956845091775221               -1000
    </Matrix>
  </Projection>
  <Projection>
    <GantryAngle>275.084696890609</GantryAngle>
    <ProjectionOffsetX>-0.000698179103982843</ProjectionOffsetX>
    <ProjectionOffsetY>0.0630162045793006</ProjectionOffsetY>
    <Matrix>
        -132.943087598588                   0   -1494.09709706573  -0.698179103982843
       0.0627682214862501               -1500 -0.0055850166547039    63.0162045793006
        -0.99606477262942                   0  0.0886282614446514               -1000
    </Matrix>
  </Projection>
  <Projection>
    <GantryAngle>274.678031299298</GantryAngle>
    <ProjectionOffsetX>3.32052679008488e-05</ProjectionOffsetX>
    <ProjectionOffsetY>0.0847281471095676</ProjectionOffsetY>
    <Matrix>
        -122.334515561109                   0   -1495.00309909459  0.0332052679008488
       0.0844458948532624               -1500 -0.00691011975672524    84.7281471095676
       -0.996668730924326                   0  0.0815563657705072               -1000
    </Matrix>
  </Projection>
  <Projection>
    <GantryAngle>274.272027327278</GantryAngle>
    <ProjectionOffsetX>0.00106975871745685</ProjectionOffsetX>
    <ProjectionOffsetY>0.0856356934100069</ProjectionOffsetY>
    <Matrix>
        -111.736748610057                   0   -1495.83251034706    1.06975871745685
       0.0853977649497576               -1500 -0.0063791635344036    85.6356934100069
       -0.997221620439152                   0  0.0744918769310527               -1000
    </Matrix>
  </Projection>
  <Projection>
    <GantryAngle>273.865361735967</GantryAngle>
    <ProjectionOffsetX>0.00180114308934276</ProjectionOffsetX>
    <ProjectionOffsetY>0.0867113038407033</ProjectionOffsetY>
    <Matrix>
        -101.116392691401                   0   -1496.58794433616    1.80114308934276
       0.0865140542915174               -1500 -0.00584539338275398    86.7113038407033
        -0.99772521527818                   0  0.0674121264915184               -1000
    </Matrix>
  </Projection>
  <Projection>
    <GantryAngle>273.459339846474</GantryAngle>
    <ProjectionOffsetX>-0.000121422100006763</ProjectionOffsetX>
    <ProjectionOffsetY>0.0877701078579299</ProjectionOffsetY>
    <Matrix>
        -90.5104126742025                   0   -1497.26679826862  -0.121422100006763
       0.0876101793461289               -1500 -0.00529606536324569    87.7701078579299
       -0.998177870396834                   0  0.0603401943155662               -1000
    </Matrix>
  </Projection>
  <Projection>
    <GantryAngle>273.053335874454</GantryAngle>
    <ProjectionOffsetX>0.000640479179644382</ProjectionOffsetX>
    <ProjectionOffsetY>0.0922937808429317</ProjectionOffsetY>
    <Matrix>
        -79.8976768856289                   0   -1497.87060897418   0.640479179644382
       0.0921627590447239               -1500 -0.0049160784724466    92.2937808429317
       -0.998580383239141                   0  0.0532655443037157               -1000
    </Matrix>
  </Projection>
  <Projection>
    <GantryAngle>272.653304393527</GantryAngle>
    <ProjectionOffsetX>-0.000808014330756501</ProjectionOffsetX>
    <ProjectionOffsetY>0.0931232934223039</ProjectionOffsetY>
    <Matrix>
        -69.4393288771396                   0   -1498.39186450199  -0.808014330756501
       0.0930234591619182               -1500 -0.00431089588919042    93.1232934223039
       -0.998927934604579                   0  0.0462923478193687               -1000
    </Matrix>
  </Projection>
  <Projection>
    <GantryAngle>272.240666311123</GantryAngle>
    <ProjectionOffsetX>0.000248883723982241</ProjectionOffsetX>
    <ProjectionOffsetY>0.094071528933535</ProjectionOffsetY>
    <Matrix>
        -58.6453071506159                   0   -1498.85313755193   0.248883723982241
       0.0939996035873083               -1500 -0.00367791806893774     94.071528933535
       -0.999235418547544                   0  0.0390970372293653               -1000
    </Matrix>
  </Projection>
  <Projection>
    <GantryAngle>271.840616912722</GantryAngle>
    <ProjectionOffsetX>0.00133121253519053</ProjectionOffsetX>
    <ProjectionOffsetY>0.0950049482645901</ProjectionOffsetY>
    <Matrix>
         -48.177619753986                   0    -1499.2261060149    1.33121253519053
       0.0949559297177892               -1500 -0.00305149245250831    95.0049482645901
       -0.999484042171526                   0  0.0321193001864478               -1000
    </Matrix>
  </Projection>
  <Projection>
    <GantryAngle>271.434612940703</GantryAngle>
    <ProjectionOffsetX>-0.00027092512259963</ProjectionOffsetX>
    <ProjectionOffsetY>0.0959383675955031</ProjectionOffsetY>
    <Matrix>
        -37.5544254958844                   0   -1499.52981468384   -0.27092512259963
       0.0959082954881973               -1500 -0.00240192286273025    95.9383675955031
       -0.999686547644499                   0  0.0250361031037893               -1000
    </Matrix>
  </Projection>
  <Projection>
    <GantryAngle>271.027947349391</GantryAngle>
    <ProjectionOffsetX>0.0010148497403939</ProjectionOffsetX>
    <ProjectionOffsetY>0.0967532574878852</ProjectionOffsetY>
    <Matrix>
        -26.9091402870426                   0   -1499.75861330083     1.0148497403939
       0.0967376863472201               -1500 -0.00173576343545716    96.7532574878852
       -0.999839063396217                   0  0.0179401033156377               -1000
    </Matrix>
  </Projection>
  <Projection>
    <GantryAngle>270.621944870793</GantryAngle>
    <ProjectionOffsetX>-0.000587287917396262</ProjectionOffsetX>
    <ProjectionOffsetY>0.0976866768190113</ProjectionOffsetY>
    <Matrix>
        -16.2827461343575                   0   -1499.91162145597  -0.587287917396262
       0.0976809216299925               -1500 -0.0010603666616853    97.6866768190113
       -0.999941085220563                   0    0.01085477258736               -1000
    </Matrix>
  </Projection>
  <Projection>
    <GantryAngle>270.215594328088</GantryAngle>
    <ProjectionOffsetX>0.000495040893814247</ProjectionOffsetX>
    <ProjectionOffsetY>0.119263966988053</ProjectionOffsetY>
    <Matrix>
        -5.64373795388714                   0   -1499.98938270314   0.495040893814247
        0.119263122665985               -1500 -0.000448769078096306    119.263966988053
       -0.999992920560261                   0 0.00376282199418423               -1000
    </Matrix>
  </Projection>
  <Projection>
    <GantryAngle>269.809255896567</GantryAngle>
    <ProjectionOffsetX>-0.00102063219827087</ProjectionOffsetX>
    <ProjectionOffsetY>0.120153822331064</ProjectionOffsetY>
    <Matrix>
         4.99263909983309                   0   -1499.99169116227   -1.02063219827087
        0.120153156499818               -1500 0.000400004869029811    120.153822331064
       -0.999994458509654                   0 -0.00332910648425036               -1000
    </Matrix>
  </Projection>
  <Projection>
    <GantryAngle>269.403251924547</GantryAngle>
    <ProjectionOffsetX>0.000382124144496787</ProjectionOffsetX>
    <ProjectionOffsetY>0.141570427815348</ProjectionOffsetY>
    <Matrix>
         15.6229277349887                   0   -1499.91863916985   0.382124144496787
        0.141562749332611               -1500 0.00147446031241741    141.570427815348
       -0.999945762099789                   0 -0.0104150304210465               -1000
    </Matrix>
  </Projection>
  <Projection>
    <GantryAngle>269.00322044362</GantryAngle>
    <ProjectionOffsetX>0.00196798193387138</ProjectionOffsetX>
    <ProjectionOffsetY>0.126802119485747</ProjectionOffsetY>
    <Matrix>
          26.096279122896                   0   -1499.77297756021    1.96798193387138
        0.126782931095473               -1500  0.0022058759979713    126.802119485747
        -0.99984867453042                   0 -0.0173962076258452               -1000
    </Matrix>
  </Projection>
  <Projection>
    <GantryAngle>268.5972164716</GantryAngle>
    <ProjectionOffsetX>0.000686271807638361</ProjectionOffsetX>
    <ProjectionOffsetY>0.151692081124973</ProjectionOffsetY>
    <Matrix>
         36.7218041017143                   0    -1499.5504356653   0.686271807638361
        0.151646619257615               -1500 0.00371353521070205    151.692081124973
       -0.999700301643829                   0 -0.0244807453570541               -1000
    </Matrix>
  </Projection>
  <Projection>
    <GantryAngle>268.184560471723</GantryAngle>
    <ProjectionOffsetX>0.00206868354522771</ProjectionOffsetX>
    <ProjectionOffsetY>0.155939344673408</ProjectionOffsetY>
    <Matrix>
         47.5222110007111                   0   -1499.24702416442    2.06868354522771
        0.155861072447609               -1500 0.00494017334243094    155.939344673408
       -0.999498059800345                   0 -0.0316800955703475               -1000
    </Matrix>
  </Projection>
  <Projection>
    <GantryAngle>267.784528990796</GantryAngle>
    <ProjectionOffsetX>0.000786973418994696</ProjectionOffsetX>
    <ProjectionOffsetY>0.167116372141729</ProjectionOffsetY>
    <Matrix>
         57.9872294451681                   0   -1498.87874133363   0.786973418994696
        0.166991455077427               -1500 0.00646032266506014    167.116372141729
       -0.999252514504105                   0 -0.0386576287066669               -1000
    </Matrix>
  </Projection>
  <Projection>
    <GantryAngle>267.371890908392</GantryAngle>
    <ProjectionOffsetX>-0.000331979865809684</ProjectionOffsetX>
    <ProjectionOffsetY>0.164484645841698</ProjectionOffsetY>
    <Matrix>
         68.7792790907136                   0   -1498.42230721779  -0.331979865809684
        0.164311640013456               -1500 0.00754212660709305    164.484645841698
